590	0.009025053
591	0.008381451
592	0.008698376
593	0.009751543
594	0.01102046
595	0.012471
596	0.01424944
597	0.01582432
598	0.01808058
599	0.01907402
600	0.02146315
601	0.02325987
602	0.02538205
603	0.02792964
604	0.03226298
605	0.03502998
606	0.03792984
607	0.04227903
608	0.04619915
609	0.05060076
610	0.0549792
611	0.05971967
612	0.06520125
613	0.06985274
614	0.07596087
615	0.08080981
616	0.08767368
617	0.09478378
618	0.1023619
619	0.1108787
620	0.1206193
621	0.1317665
622	0.1439669
623	0.1533198
624	0.1646743
625	0.1842262
626	0.1960304
627	0.2130919
628	0.2290077
629	0.2442591
630	0.2630369
631	0.2837662
632	0.2996625
633	0.3183282
634	0.3389722
635	0.357817
636	0.3787438
637	0.3967025
638	0.4220212
639	0.447374
640	0.4698586
641	0.4951175
642	0.5161285
643	0.5403184
644	0.5591035
645	0.5812273
646	0.606691
647	0.6306945
648	0.6563593
649	0.6788232
650	0.6999584
651	0.722237
652	0.7391451
653	0.7602547
654	0.7861401
655	0.8108554
656	0.8241114
657	0.8442398
658	0.8562817
659	0.8715222
660	0.8919566
661	0.9026649
662	0.9152993
663	0.9295463
664	0.9368832
665	0.9546529
666	0.9661195
667	0.9737939
668	0.9693338
669	0.9836588
670	0.9831895
671	0.988826
672	0.9935628
673	0.991031
674	0.9951743
675	0.9859237
676	0.9856409
677	0.9828836
678	0.9780103
679	0.9720753
680	0.9723508
681	0.9654039
682	0.9568433
683	0.94152
684	0.9452585
685	0.9244597
686	0.905243
687	0.9002819
688	0.8828108
689	0.8773902
690	0.8620449
691	0.8483245
692	0.8453808
693	0.821793
694	0.8203753
695	0.8087186
696	0.7936634
697	0.7887621
698	0.7697563
699	0.7553484
700	0.7428311
701	0.728539
702	0.7089359
703	0.6901411
704	0.6866939
705	0.6613265
706	0.6549343
707	0.6450645
708	0.6190072
709	0.608712
710	0.6029269
711	0.586242
712	0.5642962
713	0.5536658
714	0.5457415
715	0.5320601
716	0.5150058
717	0.5035611
718	0.4986354
719	0.4797466
720	0.4761215
721	0.4661847
722	0.4545742
723	0.4391571
724	0.4258072
725	0.4195455
726	0.4124647
727	0.3959224
728	0.3919121
729	0.3853639
730	0.3776529
731	0.3665434
732	0.3640251
733	0.3610655
734	0.344767
735	0.3411065
736	0.340374
737	0.3306468
738	0.3258575
739	0.3214645
740	0.3214169
741	0.3159061
742	0.3120506
743	0.3098784
744	0.3073101
745	0.2978389
746	0.2946563
747	0.2912371
748	0.2873182
749	0.2809151
750	0.2753629
751	0.2710332
752	0.2723045
753	0.2641656
754	0.2538107
755	0.2574627
756	0.2505659
757	0.2467677
758	0.2416579
759	0.2284201
760	0.2334775
761	0.2279899
762	0.2183651
763	0.2221255
764	0.2145876
765	0.20787
766	0.2113696
767	0.2068765
768	0.1979112
769	0.1967703
770	0.1904915
771	0.1856194
772	0.1785568
773	0.1845553
774	0.1816115
775	0.1775207
776	0.1745234
777	0.1698536
778	0.1644659
779	0.1610784
780	0.1556944
781	0.1557078
782	0.153332
783	0.1480564
784	0.1417435
785	0.1443326
786	0.1389546
787	0.1410939
788	0.1343604
789	0.1268091
790	0.1250233
791	0.1221417
792	0.1142576
793	0.11328
794	0.1097512
795	0.1120489
796	0.09864295
797	0.1011528
798	0.1075461
799	0.107601
800	0.1054264
801	0.100063
802	0.08882681
803	0.0903066
804	0.09055039
805	0.08836605
806	0.08794429
807	0.08193977
808	0.07770517
809	0.08205314
810	0.07912402
811	0.07825004
812	0.0704354
813	0.07127037
814	0.07325115
815	0.07285378
816	0.07138617
817	0.07203709
818	0.06795485
819	0.06756722
820	0.06730028
821	0.06280481
822	0.06495868
823	0.06187963
824	0.06143594
825	0.06095202
