495	0.03374486
496	0.0390013
497	0.04880032
498	0.06083038
499	0.07517142
500	0.09278782
501	0.1121376
502	0.13443
503	0.1590936
504	0.1900782
505	0.2230755
506	0.2608478
507	0.3053409
508	0.3525424
509	0.4023769
510	0.4558774
511	0.5079615
512	0.5641766
513	0.6169594
514	0.673643
515	0.7285768
516	0.7792119
517	0.827608
518	0.8678996
519	0.9067387
520	0.9341817
521	0.9624979
522	0.9783544
523	0.9924208
524	0.9957637
525	0.9965704
526	0.9960041
527	0.9843703
528	0.9735394
529	0.9580065
530	0.9366233
531	0.9157378
532	0.8939059
533	0.8672899
534	0.8408952
535	0.8153989
536	0.7865293
537	0.7605973
538	0.7330175
539	0.7047599
540	0.6768192
541	0.6489056
542	0.6245809
543	0.6012334
544	0.5823622
545	0.5621415
546	0.5408073
547	0.5218274
548	0.5015639
549	0.4858802
550	0.471225
551	0.4579958
552	0.4431487
553	0.4308332
554	0.41772
555	0.4054377
556	0.3961538
557	0.3862602
558	0.3774908
559	0.3669059
560	0.3576783
561	0.3482599
562	0.338011
563	0.3295699
564	0.3213179
565	0.3094128
566	0.3043957
567	0.2953803
568	0.2881022
569	0.2786038
570	0.2706412
571	0.2644666
572	0.2555244
573	0.2480656
574	0.2387502
575	0.2308951
576	0.2221449
577	0.2143636
578	0.2076704
579	0.2002004
580	0.1930062
581	0.1882086
582	0.1795164
583	0.1723949
584	0.1663598
585	0.1592186
586	0.1523583
587	0.1454968
588	0.1406609
589	0.1347689
590	0.1287226
591	0.1244795
592	0.1188814
593	0.1144035
594	0.1108613
595	0.1063278
596	0.1021928
597	0.09813151
598	0.09371671
599	0.09056353
600	0.0880116
601	0.08384451
602	0.07957946
603	0.07847717
604	0.07478185
605	0.07218431
606	0.06907898
607	0.06578675
608	0.06374543
609	0.06104206
610	0.05886731
611	0.05671846
612	0.05416709
613	0.05176209
614	0.05059562
615	0.04855655
616	0.04744581
617	0.04613804
618	0.04520576
619	0.04309351
620	0.04232506
621	0.04031132
622	0.03934189
623	0.03877104
624	0.03718516
625	0.03647301
626	0.03486855
627	0.03397118
628	0.03293081
629	0.03143501
630	0.03127006
631	0.03054495
632	0.02976862
633	0.02845465
634	0.02727524
635	0.02603614
636	0.02538985
637	0.02484378
638	0.02407026
639	0.02272983
640	0.02195519
641	0.0204819
642	0.02010471
643	0.01966672
644	0.01870912
645	0.01826043
646	0.01830997
647	0.01677025
648	0.01640095
649	0.01558521
650	0.01546586
