480	0.00011062
481	0.00011603
482	0.00011076
483	0.00015683
484	0.00019413
485	0.00024429
486	0.00034681
487	0.0004577
488	0.00056267
489	0.00069307
490	0.00073324
491	0.00089469
492	0.00101964
493	0.00118531
494	0.00134191
495	0.00155983
496	0.00171004
497	0.00219337
498	0.00257415
499	0.00322649
500	0.00388613
501	0.00481079
502	0.00595462
503	0.00715279
504	0.0086133
505	0.01032135
506	0.01241682
507	0.01544176
508	0.01889579
509	0.02366452
510	0.02826233
511	0.03514731
512	0.04271426
513	0.05206778
514	0.06340481
515	0.07637022
516	0.09344697
517	0.11170649
518	0.13402233
519	0.15957422
520	0.18810058
521	0.22146229
522	0.25931153
523	0.30229692
524	0.34871374
525	0.39997635
526	0.4511648
527	0.5111721
528	0.56373752
529	0.62469214
530	0.68087798
531	0.73631582
532	0.78748838
533	0.83404531
534	0.87193394
535	0.91007772
536	0.93908096
537	0.96297379
538	0.98082217
539	0.99223964
540	1.0
541	0.99888839
542	0.9965764
543	0.98591915
544	0.96897946
545	0.95146008
546	0.93234119
547	0.90896089
548	0.88526576
549	0.85675118
550	0.82794341
551	0.79464519
552	0.76361793
553	0.73294168
554	0.70262511
555	0.67010031
556	0.64433588
557	0.61516657
558	0.59073263
559	0.56689598
560	0.54254477
561	0.51966761
562	0.50037437
563	0.47832628
564	0.45952065
565	0.44109685
566	0.42612104
567	0.41282488
568	0.39779932
569	0.38571235
570	0.37356174
571	0.36463636
572	0.35429767
573	0.347166
574	0.33663498
575	0.33218624
576	0.32288217
577	0.31776467
578	0.31125528
579	0.30567516
580	0.30243188
581	0.29538131
582	0.29093063
583	0.2852539
584	0.28163633
585	0.27682874
586	0.27101571
587	0.26372163
588	0.25848029
589	0.25184683
590	0.24644181
591	0.23865161
592	0.23280881
593	0.22665872
594	0.21948923
595	0.2130998
596	0.2063948
597	0.19869741
598	0.19205634
599	0.18540005
600	0.17692923
601	0.17058576
602	0.16277087
603	0.15557161
604	0.15000537
605	0.14411841
606	0.13859678
607	0.13383157
608	0.12857053
609	0.12396662
610	0.11816306
611	0.11267873
612	0.10804997
613	0.1028205
614	0.09886795
615	0.09485826
616	0.09142392
617	0.08689639
618	0.08454523
619	0.08036246
620	0.0781482
621	0.07536679
622	0.07297063
623	0.06926187
624	0.06697078
625	0.06387147
626	0.06159566
627	0.05995875
628	0.05718556
629	0.05625798
630	0.05458966
631	0.05266097
632	0.05184712
633	0.05052734
634	0.0486869
635	0.04719795
636	0.04515726
637	0.04447
638	0.04333984
639	0.04164821
640	0.04117411
641	0.03944603
642	0.03914084
643	0.03761506
644	0.03645891
645	0.03579828
646	0.03517861
647	0.03369747
648	0.03329648
649	0.03141722
650	0.03062496
651	0.02966805
652	0.02847984
653	0.02814691
654	0.02697681
655	0.02588612
656	0.02517723
657	0.02450304
658	0.02309856
659	0.02309104
660	0.02193557
661	0.02087601
662	0.02015887
663	0.01913546
664	0.01884383
665	0.01773449
666	0.0174612
667	0.01677369
668	0.01588309
669	0.01590887
670	0.01512917
671	0.0142427
672	0.01377946
673	0.01390551
674	0.01257844
675	0.01201898
676	0.01141023
677	0.01129797
678	0.01076873
679	0.01043244
680	0.0101612
681	0.00973293
682	0.00927478
683	0.00886439
684	0.00859978
685	0.00772779
686	0.00811835
687	0.00768165
688	0.00705612
689	0.00699785
690	0.00661278
691	0.00697206
692	0.00634808
693	0.00586452
694	0.0056596
695	0.00529474
696	0.00515747
697	0.00514727
698	0.0047022
699	0.00483347
700	0.00455317
