435	0.00042672
436	0.00042506
437	0.00043599
438	0.00051601
439	0.00054479
440	0.00063442
441	0.00065097
442	0.00064359
443	0.00070602
444	0.0006834
445	0.00074168
446	0.00074525
447	0.00075892
448	0.00073396
449	0.00083869
450	0.00095866
451	0.00110948
452	0.00120859
453	0.00121156
454	0.00121985
455	0.0012623
456	0.00136142
457	0.00154122
458	0.0017143
459	0.00198133
460	0.00225655
461	0.00262685
462	0.00300115
463	0.00370159
464	0.00429098
465	0.00513596
466	0.00611108
467	0.00728274
468	0.00877454
469	0.0107932
470	0.01293424
471	0.01582196
472	0.01942197
473	0.02394668
474	0.0290195
475	0.03596385
476	0.04425737
477	0.05398022
478	0.06518579
479	0.08012395
480	0.09631073
481	0.11600093
482	0.13803266
483	0.16369418
484	0.18948671
485	0.21865022
486	0.24647271
487	0.27972158
488	0.31212195
489	0.3463424
490	0.38226655
491	0.41857701
492	0.45576689
493	0.4933562
494	0.52908571
495	0.56646404
496	0.60120408
497	0.63696912
498	0.67151854
499	0.70514392
500	0.73837291
501	0.76937213
502	0.79766548
503	0.82616808
504	0.85357551
505	0.87867042
506	0.90039059
507	0.92224938
508	0.93957673
509	0.95466089
510	0.96709463
511	0.98007509
512	0.98747095
513	0.99527881
514	1.0
515	0.99941559
516	0.99942685
517	0.99850237
518	0.99523679
519	0.99371663
520	0.98978736
521	0.98421663
522	0.98008462
523	0.97705427
524	0.97106289
525	0.96573519
526	0.96299597
527	0.95493641
528	0.95274477
529	0.95019443
530	0.94744654
531	0.94539699
532	0.94167393
533	0.94203956
534	0.93800459
535	0.93867174
536	0.93476976
537	0.93309841
538	0.93208729
539	0.92671757
540	0.92251191
541	0.91923809
542	0.91218663
543	0.90620348
544	0.89898783
545	0.89065665
546	0.8829545
547	0.87229695
548	0.86366901
549	0.85282214
550	0.8407887
551	0.82902211
552	0.81663299
553	0.80369542
554	0.78769804
555	0.77438574
556	0.7602265
557	0.74702727
558	0.7337115
559	0.72011458
560	0.70419951
561	0.69141183
562	0.6769996
563	0.66300108
564	0.64670045
565	0.63550961
566	0.62230258
567	0.61031722
568	0.59788868
569	0.58525566
570	0.57494641
571	0.56176451
572	0.55239491
573	0.54148955
574	0.5313328
575	0.52006138
576	0.51266854
577	0.5018481
578	0.49375172
579	0.48540668
580	0.47716907
581	0.46967443
582	0.46246268
583	0.45623086
584	0.44839268
585	0.44227783
586	0.43575316
587	0.42952789
588	0.42153865
589	0.41457669
590	0.40841557
591	0.40297035
592	0.3930951
593	0.38906753
594	0.38219901
595	0.37550972
596	0.36853126
597	0.36249816
598	0.35404004
599	0.34678034
600	0.34180082
601	0.33321114
602	0.32632378
603	0.31942966
604	0.31238587
605	0.30571326
606	0.29887411
607	0.29315193
608	0.28690842
609	0.27926701
610	0.2745193
611	0.26736214
612	0.26073956
613	0.25498714
614	0.24756138
615	0.24274116
616	0.23644354
617	0.23158866
618	0.22631317
619	0.22067486
620	0.21540309
621	0.21156449
622	0.20605879
623	0.20112051
624	0.19647531
625	0.19161744
626	0.18532021
627	0.18017018
628	0.17661577
629	0.17334186
630	0.16898774
631	0.16594327
632	0.162
633	0.15876422
634	0.15511732
635	0.15242571
636	0.14860578
637	0.145479
638	0.14230153
639	0.13977588
640	0.13626544
641	0.13325299
642	0.13129346
643	0.12813098
644	0.12577836
645	0.12341876
646	0.12142137
647	0.1174441
648	0.1162544
649	0.11388969
650	0.11024621
651	0.10971011
652	0.10660516
653	0.1050445
654	0.10256338
655	0.1007074
656	0.09865317
657	0.09647197
658	0.09437451
659	0.09181273
660	0.08986521
661	0.08839955
662	0.08679219
663	0.08408247
664	0.0825186
665	0.08100728
666	0.07997519
667	0.07748714
668	0.0763282
669	0.07489495
670	0.07229335
671	0.07097217
672	0.06901221
673	0.0680279
674	0.06613466
675	0.06468209
676	0.06302001
677	0.06218109
678	0.060738
679	0.05904278
680	0.05835154
681	0.05666152
682	0.05537522
683	0.05388786
684	0.05226407
685	0.05098318
686	0.04969021
687	0.04947481
688	0.0471526
689	0.04706899
690	0.0460904
691	0.04527227
692	0.04346792
693	0.04325508
694	0.04180789
695	0.04108041
696	0.04003383
697	0.03890495
698	0.0388535
699	0.03762299
700	0.03616458
701	0.03587901
702	0.03538488
703	0.03449829
704	0.03355511
705	0.03344047
706	0.03311887
707	0.03162148
708	0.03131189
709	0.03013248
710	0.0298515
711	0.02895972
712	0.02858379
713	0.02803241
714	0.0283044
715	0.02704546
716	0.02686222
717	0.02613115
718	0.02532874
719	0.02464359
720	0.02438896
721	0.02441746
722	0.02329001
723	0.0226286
724	0.02261993
725	0.0219157
726	0.02192716
727	0.0212316
728	0.02131524
729	0.02067519
730	0.02096697
731	0.01990095
732	0.0192734
733	0.01921403
734	0.019458
735	0.01889952
736	0.0185362
737	0.0181627
738	0.01734338
739	0.01739085
740	0.0173792
741	0.01651643
742	0.01680957
743	0.01683968
744	0.01659205
745	0.01598785
746	0.01517956
747	0.01532905
748	0.01527945
749	0.01497382
750	0.01435858
