400	0.03266077
401	0.03377951
402	0.03407094
403	0.03374758
404	0.03292137
405	0.03271986
406	0.03320362
407	0.03354056
408	0.03372115
409	0.03411829
410	0.03496285
411	0.03536109
412	0.03607572
413	0.03772116
414	0.03901755
415	0.03957692
416	0.04138129
417	0.0431196
418	0.04587864
419	0.04800638
420	0.05035618
421	0.05221671
422	0.05593373
423	0.05858964
424	0.06087777
425	0.06374106
426	0.06708443
427	0.06999213
428	0.07442819
429	0.07745444
430	0.08137737
431	0.08498612
432	0.08860257
433	0.09380391
434	0.09848148
435	0.1041757
436	0.1093118
437	0.1153463
438	0.1225575
439	0.1287425
440	0.1356282
441	0.1414499
442	0.1501561
443	0.1574242
444	0.1671244
445	0.1755502
446	0.1834213
447	0.1914761
448	0.2021493
449	0.2142664
450	0.2277125
451	0.2376003
452	0.2491408
453	0.2627015
454	0.2729467
455	0.2843106
456	0.2968766
457	0.3079862
458	0.3213267
459	0.331744
460	0.3410683
461	0.3500597
462	0.3621093
463	0.3728281
464	0.3821659
465	0.3862261
466	0.3918499
467	0.4049514
468	0.4207966
469	0.4361422
470	0.4473087
471	0.4567211
472	0.4715866
473	0.4925461
474	0.5102056
475	0.5251607
476	0.5494925
477	0.5697238
478	0.5957419
479	0.6216972
480	0.6541469
481	0.689185
482	0.7269759
483	0.765793
484	0.8057737
485	0.8433965
486	0.8818212
487	0.909744
488	0.9384084
489	0.9533171
490	0.9661056
491	0.9837717
492	0.9967444
493	0.9994238
494	0.9905164
495	0.9794971
496	0.9577507
497	0.9305569
498	0.9020435
499	0.8675933
500	0.8270055
501	0.7840717
502	0.7417798
503	0.6947438
504	0.6466531
505	0.5928342
506	0.5408117
507	0.4891661
508	0.4422002
509	0.3951875
510	0.350705
511	0.3100453
512	0.2732208
513	0.239136
514	0.2088129
515	0.176797
516	0.1510392
517	0.1290182
518	0.1099544
519	0.09316489
520	0.07827404
